Voltage,Current,Power
0.1973266259014307,0.0,0.0
0.19486684274852006,239.79927613639344,46.72892783407952
0.1925530501526664,461.1448329607064,88.79484414872587
0.19036486486791357,665.978528239173,126.77891253318212
0.1882858384923973,855.9799785984915,161.16890800312126
0.1863025060540536,1032.6094055342255,192.37772002601275
0.18440370568237235,1197.1423459849773,220.75748482891854
0.18258008179964613,1350.697974372118,246.61054664747766
0.18082371549643902,1494.2623668752954,270.198073104894
0.17912784465961928,1628.7077325030486,291.74690570372684
0.17748664975954911,1754.8083992826764,311.4550637585994
0.17589508612059454,1873.254184917238,329.4962061817817
0.17434875263619298,1984.6616295232284,346.02327951228904
0.1728437868526093,2089.583484295245,361.17152237026
0.17137678041991816,2188.5167649742943,375.0609570763093
0.16994471138781175,2281.909605042648,387.79846924204827
0.1685448874920135,2370.1671339562613,399.4795529299261
0.1671748999248871,2453.656524002128,410.1897838501021
0.16583258593430053,2532.7113246723075,420.0060683954966
0.164515995666014,2607.635242757213,428.99770829599095
0.16322336537202695,2678.705410340983,437.2273119161116
0.16195309481650072,2746.1752279591574,444.7515770763949
0.16070372769988966,2810.276855912213,451.6219666138183
0.1594739350146243,2871.223396232859,457.8852933033079
0.15826250077119194,2929.2108094507844,463.58422798968854
0.1570683091373338,2984.4196272733057,468.7577446120901
0.15589033484673223,3037.016404236985,473.4415041915223
0.15472763330245587,3087.1550565266243,477.66819553407396
0.153579332070456,3134.9780578971986,481.46783618738704
0.15244462398712422,3180.617479718624,484.86803574258033
0.15132276088405058,3224.195930247768,487.894229796212
0.1502130487684833,3265.8273185219223,490.56987826657854
0.14911484147634893,3305.617732931271,492.9166642274544
0.14802753764725982,3343.6659831604798,494.9546422021499
0.1469505759616546,3380.064310809414,496.70239726087647
0.145883432343141,3414.898823755521,498.1771615140103
0.14482561630297447,3448.2500959871627,499.3949453181317
0.14377666850157286,3480.1935436854924,500.3706334517832
0.14273615813299556,3510.7998278342366,501.11807939904116
0.14170368070030603,3540.1352791089294,501.6501992267405
0.1406788559470704,3568.262144028765,501.97903614120725
0.1396613259346686,3595.2389296474853,502.1158359665065
0.13865075558339202,3621.1210060762082,502.07116355135895
0.13764682127680639,3645.959325767294,501.85471169639624
0.13664922973453333,3669.8037661029603,501.47585791485903
0.13565769583283274,3692.7001037860364,500.943187481276
0.1346719489317842,3714.6914657308444,500.26473937023883
0.1336917370363557,3735.819204134269,499.44815865448635
0.1327168209126328,3756.1224186103786,498.50062635663875
0.13174696993737114,3775.6372243365136,497.42876388908206
0.1307819745394861,3794.3993132344567,496.2390343760722
0.1298216223175471,3812.440744464071,494.93724243584273
0.1288657256968593,3829.793570777813,493.529127767449
0.1279140957534991,3846.486994933154,492.0199057844685
0.1269665554271985,3862.548988700092,490.4145402640598
0.12602294019022178,3878.0066279725706,488.7177973342709
0.1250830891051195,3892.8850984582095,486.93409364644015
0.12414685309961054,3907.208920983674,485.067691942848
0.12321408327622557,3921.0004793916937,483.12247959388856
0.12228464645784537,3934.2823117106173,481.1023215528874
0.12135840291690825,3947.0740802134555,479.01060656942957
0.12043523662437956,3959.3970042957403,476.8509151022171
0.1195150227119724,3971.269293452977,474.6263398023911
0.11859765305295292,3982.70994392551,472.3400521402232
0.1176830024862551,3993.7338579251677,469.99459153164867
0.11677097592148544,4004.358883697035,467.59289478917276
0.11586148353526292,4014.602273753047,465.13777524106774
0.11495441046930835,4024.4761657045287,462.6312850763466
0.11404967409427176,4033.9962570720686,460.07595841658156
0.11314718802217627,4043.1764743481253,457.47404874990707
0.11224686783452856,4052.0298858188694,454.8276630550705
0.11134863226987564,4060.5689373438395,452.13879741077886
0.1104523958290682,4068.804361024371,449.4091898349027
0.10955808968558908,4076.7484567702304,446.6407730524198
0.10866564758380015,4084.4129803927644,443.83538151405895
0.10777500095079777,4091.8084218235945,440.9946565525202
0.10688608509224025,4098.945007725216,438.12018488413077
0.10599881635237318,4105.829146777849,435.2130297035263
0.10511317037774016,4112.475786620235,432.2753680333438
0.10422906669579127,4118.890289560475,429.3080907032458
0.10334643578908538,4125.078994254251,426.3122114046018
0.10246524794903779,4131.053867341427,423.28945880797073
0.10158544755571103,4136.822115088981,420.24092601967726
0.10070698837230696,4142.391806451722,417.1678034858732
0.0998298147322139,4147.7688968741095,414.0710005269816
0.09895386815857023,4152.9582992122405,410.9512880082881
0.09807913096825094,4157.970928330504,407.8101752419074
0.09720554969541645,4162.811426417116,404.6483729832364
0.09633309296243914,4167.487485787535,401.4669593881723
0.09546169976414424,4172.001521535514,398.26635666437625
0.09459134192528341,4176.360786266972,395.0475711371247
0.09372199034324535,4180.571945828235,391.81152353615624
0.09285360739650977,4184.639857320492,388.5589064074237
0.09198615600852564,4188.569052339197,385.2903663009557
0.09111959852001769,4192.363569079306,382.00648526445485
0.09025390449273848,4196.028243685015,378.70793235438055
0.08938906939306937,4199.571794754622,375.3958145824978
0.088525020787924,4202.991473236378,372.06990753971763
0.08766177848806272,4206.299312749037,368.7316786086966
0.08679926713398468,4209.4914090054135,365.38076930847444
0.08593750094246391,4212.57826283652,362.0184484327164
0.08507643063710854,4215.559639629082,358.64476727749786
0.08421605320425189,4218.442637870298,355.26058962996973
0.08335631602815756,4221.225899306733,351.8658400888556
0.08249724167720493,4223.920219335218,348.4617671597299
0.08163873489073929,4226.516656789487,345.0474728549307
0.08078087466057443,4229.034863322603,341.6251352292627
0.07992353147128338,4231.459723053919,338.19320434496797
0.07906678521289173,4233.810603282353,334.7537936017894
0.0782105171102089,4236.073691244615,331.3055139091927
0.07735479673261192,4238.26624013656,327.85022350445496
0.07649957316567914,4240.385290825689,324.3876648061894
0.07564484903332325,4242.436592503623,320.9184755733828
0.07479056742602588,4244.415790153226,317.4422653375438
0.07393672362967688,4246.327038467622,313.95950868440485
0.07308332963501472,4248.177114067916,310.47092837535104
0.07223036271143797,4249.966837170013,306.97664616037287
0.07137778030530499,4251.693548529931,303.47644803245197
0.07052563625549041,4253.370549925891,299.9716642638886
0.06967380251193099,4254.980569828439,296.46067591433024
0.06882236740875883,4256.542394963135,292.9453245971111
0.0679713031151128,4258.055242253384,289.42556355209985
0.06712060133068218,4259.521463886509,285.9016420370101
0.06627013695469454,4260.9236852115355,282.37199617247023
0.06542004248076319,4262.2876135091965,278.8390367410024
0.06457026850684922,4263.608333186902,275.3023348819181
0.06372078298007143,4264.883715143391,271.76172964789276
0.06287155971346556,4266.11249798441,268.21714666138854
0.06202265164951531,4267.306617601764,264.6696718251856
0.06117402718997684,4268.463698772979,261.11911436816735
0.06032560402800738,4269.572722874693,257.56455344892
0.05947751638373217,4270.659020157465,254.00819184074925
0.05862955710621658,4271.690352829107,250.4473134812686
0.05778190648705194,4272.699641324078,246.88473112224824
0.056934505822264406,4273.679471897955,243.31982877526602
0.05608728580300979,4274.620545411031,239.7518642298861
0.05524024337037391,4275.524645031056,236.18102192754708
0.05439353922375078,4276.421115395668,232.6096796775503
0.05354684699370724,4277.257031538369,229.03362782054347
0.05270047137101956,4278.085901126497,225.4571435550794
0.051854217677407194,4278.8768678298375,221.8778125192707
0.051008193697185275,4279.650079208237,218.29722019642807
0.0501623391878668,4280.397238693922,214.71473814617298
0.04931666267389093,4281.12160260634,211.13062994164423
0.048471051282110725,4281.8058388029685,207.54363039265982
0.04762574535565449,4282.492286499124,203.95688712436183
0.04678058794484494,4283.156048455954,200.36855820628827
0.04593536950439164,4283.763246008097,196.7762475747141
0.04509041885235053,4284.371047471765,193.1840850493857
0.04424559582554872,4284.957216825241,189.59048514541772
0.04340097370913025,4285.5355950468565,185.9964176901705
0.042556531600282534,4286.104032446544,182.40172169890974
0.04171204579175027,4286.6259721387805,178.80393884195885
0.04086768459302739,4287.131210261994,175.20512610991096
